FILE CREATED: 07/08/2023 16:59:04
Stitching:     KKB0020066_FB 10% PBS Salt A-abs_cut_masked_smooth_ip_Lake_DSM + BBY0054254_FB 10% PBS Salt A_SC_sub
Normalization:     1.3085442 * KKB0020066_FB 10% PBS Salt A-abs_cut_masked_smooth_ip_Lake_DSM
The 6 columns are | Q (1/A) | I(Q) (1/cm) | std. dev. I(Q) (1/cm) | sigmaQ | meanQ | ShadowFactor|
    3.20147e-05       171817417      2194158.89     3.20147e-07     3.20147e-05               1
   3.841764e-05       104193162      1570247.23    3.841764e-07    3.841764e-05               1
  4.6101168e-05      63759277.6         1136063   4.6101168e-07   4.6101168e-05               1
 5.53214016e-05      37336808.1      800997.718  5.53214016e-07  5.53214016e-05               1
 6.63856819e-05      20671247.3      543258.128  6.63856819e-07  6.63856819e-05               1
 7.96628183e-05      12200748.3      378807.526  7.96628183e-07  7.96628183e-05               1
  9.5595382e-05      6637748.34      203549.991   9.5595382e-07   9.5595382e-05               1
 0.000114714458       3415589.1      107525.496  1.14714458e-06  0.000114714458               1
  0.00013765735      1917967.96      58664.1384   1.3765735e-06   0.00013765735               1
  0.00016518882      988045.979      31094.0627   1.6518882e-06   0.00016518882               1
 0.000198226584      500838.501      15056.0443  1.98226584e-06  0.000198226584               1
 0.000237871901      274923.349      8797.73101  2.37871901e-06  0.000237871901               1
 0.000285446281      151078.009      4598.34778  2.85446281e-06  0.000285446281               1
 0.000342535537      82493.2766      2577.75725  3.42535537e-06  0.000342535537               1
 0.000411042645      48020.8435       1553.2741  4.11042645e-06  0.000411042645               1
 0.000493251174      28588.8825      928.553694  4.93251174e-06  0.000493251174               1
 0.000591901408      17938.4145      593.487893  5.91901408e-06  0.000591901408               1
  0.00071028169      11758.9735      391.098846   7.1028169e-06   0.00071028169               1
 0.000852338028      7923.49639      277.721362  8.52338028e-06  0.000852338028               1
  0.00102280563      5383.57695       189.29954  1.02280563e-05   0.00102280563               1
  0.00122736676      3599.90578      130.585384  1.22736676e-05   0.00122736676               1
  0.00147284011      2408.86846      91.4699847  1.47284011e-05   0.00147284011               1
     0.00165035         1572.41         24.9031               0      0.00165035               1
  0.00176740813      1578.41923       62.915581  1.76740813e-05   0.00176740813               1
     0.00178238         1462.29         13.7936               0      0.00178238               1
     0.00192497         1279.77         11.1169               0      0.00192497               1
     0.00207896         1193.44         6.21418               0      0.00207896               1
  0.00212088976        1019.729      42.2244024  2.12088976e-05   0.00212088976               1
     0.00224528         1016.41          4.5241               0      0.00224528               1
      0.0024249         860.092         3.53824               0       0.0024249               1
  0.00254506771      724.448563      32.9491136  2.54506771e-05   0.00254506771               1
      0.0026189         669.926         3.04693               0       0.0026189               1
     0.00282841         596.298         1.87802               0      0.00282841               1
  0.00305408126      572.423146      29.8777045  3.05408126e-05   0.00305408126               1
     0.00305468          487.33         1.77667               0      0.00305468               1
     0.00329906         411.675         1.37554               0      0.00329906               1
     0.00356298         336.652         1.18247               0      0.00356298               1
  0.00366489751      335.430642      21.0736158  3.66489751e-05   0.00366489751               1
     0.00384802         287.481         1.02823               0      0.00384802               1
     0.00415586         237.654        0.823577               0      0.00415586               1
     0.00448833         201.795         0.72981               0      0.00448833               1
      0.0048474         172.364        0.631378               0       0.0048474               1
     0.00523519          146.88        0.533401               0      0.00523519               1
       0.005654         124.774        0.447595               0        0.005654               1
     0.00610632         107.098        0.386876               0      0.00610632               1
     0.00659483         91.0213        0.329485               0      0.00659483               1
     0.00712241         77.4529        0.275164               0      0.00712241               1
     0.00769221         66.5384        0.240991               0      0.00769221               1
     0.00830758         57.2011        0.210113               0      0.00830758               1
     0.00897219         49.7796        0.176568               0      0.00897219               1
     0.00968997         42.8332        0.155398               0      0.00968997               1
      0.0104652         36.8399        0.131133               0       0.0104652               1
      0.0113024           31.54        0.113097               0       0.0113024               1
      0.0122066         26.9962       0.0967424               0       0.0122066               1
      0.0131831         23.1068       0.0836093               0       0.0131831               1
      0.0142377         19.6091       0.0720357               0       0.0142377               1
      0.0153768         16.5268       0.0657904               0       0.0153768               1
      0.0166069          14.034       0.0518603               0       0.0166069               1
      0.0179355         12.0219       0.0519535               0       0.0179355               1
      0.0193703         10.1729        0.046854               0       0.0193703               1
      0.0209199         8.69293       0.0538355               0       0.0209199               1
      0.0225935         7.35955       0.0446707               0       0.0225935               1
       0.024401         6.23998       0.0419385               0        0.024401               1
      0.0263531          5.4695       0.0407544               0       0.0263531               1
      0.0284613         4.72908       0.0295765               0       0.0284613               1
      0.0307382         3.96252       0.0249956               0       0.0307382               1
      0.0331973           3.407       0.0208845               0       0.0331973               1
       0.035853         2.96997       0.0185568               0        0.035853               1
      0.0387213         2.57802       0.0155262               0       0.0387213               1
       0.041819         2.26787       0.0135191               0        0.041819               1
      0.0451645         2.05041        0.011874               0       0.0451645               1
      0.0487777         1.83219       0.0092466               0       0.0487777               1
      0.0526799         1.71366       0.0080276               0       0.0526799               1
      0.0568943         1.59106      0.00654957               0       0.0568943               1
      0.0614458         1.49462      0.00582226               0       0.0614458               1
      0.0663615         1.44037      0.00528332               0       0.0663615               1
      0.0716704         1.39138      0.00473551               0       0.0716704               1
       0.077404         1.33419      0.00407778               0        0.077404               1
      0.0835964         1.30257       0.0035117               0       0.0835964               1
      0.0902841         1.27948      0.00325611               0       0.0902841               1
      0.0975068         1.25624      0.00292875               0       0.0975068               1
       0.105307          1.2474      0.00267305               0        0.105307               1
       0.113732         1.23748       0.0025613               0        0.113732               1
        0.12283          1.2174      0.00240273               0         0.12283               1
       0.132657         1.21309      0.00235686               0        0.132657               1
       0.143269         1.19908      0.00233641               0        0.143269               1
       0.154731         1.19772      0.00223571               0        0.154731               1
        0.16711         1.19067      0.00226888               0         0.16711               1
       0.180478          1.1915      0.00237222               0        0.180478               1
       0.194917         1.18277      0.00211623               0        0.194917               1
        0.21051         1.16825       0.0018492               0         0.21051               1
       0.227351         1.16293      0.00166125               0        0.227351               1
       0.245539          1.1593      0.00155426               0        0.245539               1
       0.265182         1.15795      0.00173452               0        0.265182               1
       0.286396         1.15838      0.00190987               0        0.286396               1
       0.309308         1.15306       0.0019329               0        0.309308               1
       0.334053         1.14803       0.0018728               0        0.334053               1
       0.360777         1.14487      0.00226602               0        0.360777               1
       0.389639         1.15077      0.00859628               0        0.389639               1
