FILE CREATED: 05/09/2022 10:12:51
Stitching:     KKB0020055_YP 10% PBS Salt A-abs_cut_smooth_ip_Lake_DSM + BBY0054186_YP 10% PBS salt A_SC_sub
Normalization:     1.1564616 * KKB0020055_YP 10% PBS Salt A-abs_cut_smooth_ip_Lake_DSM
The 6 columns are | Q (1/A) | I(Q) (1/cm) | std. dev. I(Q) (1/cm) | sigmaQ | meanQ | ShadowFactor|
    3.48166e-05       377199035      2860248.94     3.48166e-07     3.48166e-05               1
   4.177992e-05       202079865      1873158.54    4.177992e-07    4.177992e-05               1
  5.0135904e-05       122568214      1316409.35   5.0135904e-07   5.0135904e-05               1
 6.01630848e-05      75478651.6      962831.204  6.01630848e-07  6.01630848e-05               1
 7.21957018e-05      45236546.3      688553.623  7.21957018e-07  7.21957018e-05               1
 8.66348421e-05      26127165.6      487085.727  8.66348421e-07  8.66348421e-05               1
 0.000103961811      15675969.5      344805.547  1.03961811e-06  0.000103961811               1
 0.000124754173      8967335.97        247379.7  1.24754173e-06  0.000124754173               1
 0.000149705007      4959754.28        149315.9  1.49705007e-06  0.000149705007               1
 0.000179646009         2656853      80563.8468  1.79646009e-06  0.000179646009               1
  0.00021557521      1430950.48       44573.037   2.1557521e-06   0.00021557521               1
 0.000258690252      745194.711      22718.0079  2.58690252e-06  0.000258690252               1
 0.000310428303      395888.122      12170.6166  3.10428303e-06  0.000310428303               1
 0.000372513963      199688.512      6182.03394  3.72513963e-06  0.000372513963               1
 0.000447016756      100282.757      3014.45146  4.47016756e-06  0.000447016756               1
 0.000536420107      54879.4446      1726.83852  5.36420107e-06  0.000536420107               1
 0.000643704129      31055.1287      973.803762  6.43704129e-06  0.000643704129               1
 0.000772444955      17982.6234      593.592556  7.72444955e-06  0.000772444955               1
 0.000926933946      10259.3606      336.260566  9.26933946e-06  0.000926933946               1
  0.00111232073      5953.35275      198.918285  1.11232073e-05   0.00111232073               1
  0.00133478488      3648.45294      128.807935  1.33478488e-05   0.00133478488               1
  0.00160174186      2264.71349      83.8990613  1.60174186e-05   0.00160174186               1
     0.00165035         1733.81         26.3344               0      0.00165035               1
     0.00178238         1566.91         14.3699               0      0.00178238               1
     0.00192497         1348.94         11.4806               0      0.00192497               1
     0.00207896         1306.77          6.5422               0      0.00207896               1
     0.00224528         1089.77         4.71149               0      0.00224528               1
      0.0024249         917.461         3.67478               0       0.0024249               1
      0.0026189         716.698         3.16862               0       0.0026189               1
     0.00282841         637.764         1.95259               0      0.00282841               1
     0.00305468         520.104         1.84517               0      0.00305468               1
     0.00329906         447.004         1.44089               0      0.00329906               1
     0.00356298         369.508         1.24533               0      0.00356298               1
     0.00384802         315.858          1.0834               0      0.00384802               1
     0.00415586         263.876        0.872346               0      0.00415586               1
     0.00448833         225.152        0.774872               0      0.00448833               1
      0.0048474          193.35        0.672143               0       0.0048474               1
     0.00523519          165.75        0.569505               0      0.00523519               1
       0.005654         141.946        0.479815               0        0.005654               1
     0.00610632         121.066        0.413401               0      0.00610632               1
     0.00659483         104.877        0.355426               0      0.00659483               1
     0.00712241         90.3591         0.29866               0      0.00712241               1
     0.00769221         77.1979        0.260832               0      0.00769221               1
     0.00830758         66.5594        0.227722               0      0.00830758               1
     0.00897219         57.2655        0.190273               0      0.00897219               1
     0.00968997          49.093        0.167138               0      0.00968997               1
      0.0104652         41.4961        0.139816               0       0.0104652               1
      0.0113024         34.4652         0.11878               0       0.0113024               1
      0.0122066         28.7048        0.100233               0       0.0122066               1
      0.0131831         23.7423       0.0851712               0       0.0131831               1
      0.0142377         19.4349       0.0720907               0       0.0142377               1
      0.0153768          15.659       0.0644081               0       0.0153768               1
      0.0166069         12.9802       0.0501611               0       0.0166069               1
      0.0179355         10.5338       0.0489653               0       0.0179355               1
      0.0193703         8.83007       0.0439357               0       0.0193703               1
      0.0209199         7.22991       0.0494548               0       0.0209199               1
      0.0225935         6.19354       0.0412382               0       0.0225935               1
       0.024401         5.28529       0.0388293               0        0.024401               1
      0.0263531         4.59815       0.0376031               0       0.0263531               1
      0.0284613         4.07704       0.0276421               0       0.0284613               1
      0.0307382         3.51516       0.0236987               0       0.0307382               1
      0.0331973         3.09173       0.0200246               0       0.0331973               1
       0.035853         2.76445        0.018017               0        0.035853               1
      0.0387213         2.43794       0.0151923               0       0.0387213               1
       0.041819         2.25201       0.0135428               0        0.041819               1
      0.0451645         2.04665       0.0119246               0       0.0451645               1
      0.0487777          1.8799      0.00940772               0       0.0487777               1
      0.0526799         1.73762      0.00812171               0       0.0526799               1
      0.0568943         1.64053      0.00667839               0       0.0568943               1
      0.0614458          1.5542      0.00596011               0       0.0614458               1
      0.0663615         1.49313      0.00540045               0       0.0663615               1
      0.0716704         1.43179       0.0048238               0       0.0716704               1
       0.077404         1.37934       0.0041628               0        0.077404               1
      0.0835964         1.34031       0.0035771               0       0.0835964               1
      0.0902841         1.31608      0.00331623               0       0.0902841               1
      0.0975068         1.29199      0.00298265               0       0.0975068               1
       0.105307         1.27617      0.00271559               0        0.105307               1
       0.113732         1.26556      0.00260165               0        0.113732               1
        0.12283         1.24594      0.00244144               0         0.12283               1
       0.132657         1.24126      0.00239461               0        0.132657               1
       0.143269         1.22728      0.00237422               0        0.143269               1
       0.154731            1.22      0.00226788               0        0.154731               1
        0.16711         1.21605      0.00230217               0         0.16711               1
       0.180478         1.21429      0.00240583               0        0.180478               1
       0.194917         1.20119      0.00214267               0        0.194917               1
        0.21051         1.18665      0.00187247               0         0.21051               1
       0.227351         1.18311      0.00168343               0        0.227351               1
       0.245539         1.18239      0.00157688               0        0.245539               1
       0.265182         1.17701      0.00175693               0        0.265182               1
       0.286396         1.17531      0.00193288               0        0.286396               1
       0.309308         1.17693      0.00196175               0        0.309308               1
       0.334053         1.16537       0.0018958               0        0.334053               1
       0.360777         1.16681      0.00229815               0        0.360777               1
       0.389639         1.15217      0.00864519               0        0.389639               1
